#ASTAR: Stopping Powers and Range Tables for Alpha Particles
#
#NEON                                                                    
#
#Kinetic   Total     
#Energy    Stp. Pow. 
#MeV       MeV cm2/g 
#
1.000E-03 1.695E+02 
1.500E-03 1.802E+02 
2.000E-03 1.882E+02 
2.500E-03 1.950E+02 
3.000E-03 2.010E+02 
4.000E-03 2.118E+02 
5.000E-03 2.216E+02 
6.000E-03 2.308E+02 
7.000E-03 2.396E+02 
8.000E-03 2.480E+02 
9.000E-03 2.560E+02 
1.000E-02 2.638E+02 
1.250E-02 2.823E+02 
1.500E-02 2.997E+02 
1.750E-02 3.160E+02 
2.000E-02 3.316E+02 
2.250E-02 3.464E+02 
2.500E-02 3.606E+02 
2.750E-02 3.743E+02 
3.000E-02 3.874E+02 
3.500E-02 4.125E+02 
4.000E-02 4.360E+02 
4.500E-02 4.582E+02 
5.000E-02 4.794E+02 
5.500E-02 4.996E+02 
6.000E-02 5.189E+02 
6.500E-02 5.375E+02 
7.000E-02 5.554E+02 
7.500E-02 5.726E+02 
8.000E-02 5.892E+02 
8.500E-02 6.054E+02 
9.000E-02 6.210E+02 
9.500E-02 6.362E+02 
1.000E-01 6.509E+02 
1.250E-01 7.190E+02 
1.500E-01 7.795E+02 
1.750E-01 8.338E+02 
2.000E-01 8.831E+02 
2.250E-01 9.279E+02 
2.500E-01 9.690E+02 
2.750E-01 1.007E+03 
3.000E-01 1.041E+03 
3.500E-01 1.102E+03 
4.000E-01 1.154E+03 
4.500E-01 1.197E+03 
5.000E-01 1.234E+03 
5.500E-01 1.264E+03 
6.000E-01 1.288E+03 
6.500E-01 1.307E+03 
7.000E-01 1.322E+03 
7.500E-01 1.333E+03 
8.000E-01 1.340E+03 
8.500E-01 1.345E+03 
9.000E-01 1.346E+03 
9.500E-01 1.346E+03 
1.000E+00 1.343E+03 
1.250E+00 1.297E+03 
1.500E+00 1.230E+03 
1.750E+00 1.161E+03 
2.000E+00 1.096E+03 
2.250E+00 1.036E+03 
2.500E+00 9.824E+02 
2.750E+00 9.335E+02 
3.000E+00 8.892E+02 
3.500E+00 8.127E+02 
4.000E+00 7.489E+02 
4.500E+00 6.961E+02 
5.000E+00 6.509E+02 
5.500E+00 6.117E+02 
6.000E+00 5.774E+02 
6.500E+00 5.472E+02 
7.000E+00 5.203E+02 
7.500E+00 4.963E+02 
8.000E+00 4.747E+02 
8.500E+00 4.551E+02 
9.000E+00 4.373E+02 
9.500E+00 4.210E+02 
1.000E+01 4.060E+02 
1.250E+01 3.460E+02 
1.500E+01 3.030E+02 
1.750E+01 2.704E+02 
2.000E+01 2.448E+02 
2.500E+01 2.069E+02 
2.750E+01 1.925E+02 
3.000E+01 1.801E+02 
3.500E+01 1.599E+02 
4.000E+01 1.442E+02 
4.500E+01 1.315E+02 
5.000E+01 1.211E+02 
5.500E+01 1.124E+02 
6.000E+01 1.049E+02 
6.500E+01 9.848E+01 
7.000E+01 9.287E+01 
7.500E+01 8.793E+01 
8.000E+01 8.354E+01 
8.500E+01 7.962E+01 
9.000E+01 7.609E+01 
9.500E+01 7.289E+01 
1.000E+02 6.998E+01 
1.250E+02 5.862E+01 
1.500E+02 5.074E+01 
1.750E+02 4.494E+01 
2.000E+02 4.048E+01 
2.250E+02 3.693E+01 
2.500E+02 3.405E+01 
2.750E+02 3.165E+01 
3.000E+02 2.962E+01 
3.500E+02 2.638E+01 
4.000E+02 2.390E+01 
4.500E+02 2.194E+01 
5.000E+02 2.035E+01 
5.500E+02 1.903E+01 
6.000E+02 1.792E+01 
6.500E+02 1.698E+01 
7.000E+02 1.616E+01 
7.500E+02 1.545E+01 
8.000E+02 1.483E+01 
8.500E+02 1.427E+01 
9.000E+02 1.378E+01 
9.500E+02 1.334E+01 
1.000E+03 1.294E+01 
