SOURCES 4C Calculation
<<<<<<<<<<<>>>>>>>>>>>



                          Neutron Source Magnitudes
                          ~~~~~~~~~~~~~~~~~~~~~~~~~

Title: Copper on He interface problem InterfaceProblem: N. Abgrall et al., Nucl. Ins

 WARNING-AN ALPHA ENERGY THAT EXCEEDED   6.500 MEV WAS SET TO:  6.500 MeV
 WARNING-AN ALPHA ENERGY THAT EXCEEDED   6.500 MEV WAS SET TO:  6.500 MeV
 WARNING-AN ALPHA ENERGY THAT EXCEEDED   6.500 MEV WAS SET TO:  6.500 MeV
 WARNING-AN ALPHA ENERGY THAT EXCEEDED   6.500 MEV WAS SET TO:  6.500 MeV
 WARNING-AN ALPHA ENERGY THAT EXCEEDED   6.500 MEV WAS SET TO:  6.500 MeV


1                              Table I
                               =======

            (alpha,n) Neutron Production by Target and Alpha Energy


                 target            alpha   alphas/sec     p(e)     neuts/sec
       target  atom frac.          energy     /cm^2    neut/alpha    /cm^2
+      ______  __________  ______  ______  __________  __________  __________
       be  9   1.0000E+00           0.004  9.3602E-14  0.0000E+00  0.0000E+00
                                    0.011  4.4132E-14  0.0000E+00  0.0000E+00
                                    0.017  3.3873E-14  0.0000E+00  0.0000E+00
                                    0.024  2.8544E-14  0.0000E+00  0.0000E+00
                                    0.030  2.5126E-14  0.0000E+00  0.0000E+00
                                    0.037  2.2692E-14  0.0000E+00  0.0000E+00
                                    0.043  2.0847E-14  0.0000E+00  0.0000E+00
                                    0.050  1.9386E-14  0.0000E+00  0.0000E+00
                                    0.056  1.8193E-14  0.0000E+00  0.0000E+00
                                    0.063  1.7195E-14  0.0000E+00  0.0000E+00
                                    0.069  1.6345E-14  0.0000E+00  0.0000E+00
                                    0.076  1.5610E-14  0.0000E+00  0.0000E+00
                                    0.082  1.4967E-14  0.0000E+00  0.0000E+00
                                    0.089  1.4399E-14  0.0000E+00  0.0000E+00
                                    0.095  1.3892E-14  0.0000E+00  0.0000E+00
                                    0.102  1.3436E-14  0.0000E+00  0.0000E+00
                                    0.108  1.3024E-14  0.0000E+00  0.0000E+00
                                    0.115  1.2650E-14  0.0000E+00  0.0000E+00
                                    0.121  1.2307E-14  0.0000E+00  0.0000E+00
                                    0.128  1.1992E-14  0.0000E+00  0.0000E+00
                                    0.134  1.1702E-14  0.0000E+00  0.0000E+00
                                    0.141  1.1433E-14  0.0000E+00  0.0000E+00
                                    0.147  1.1183E-14  0.0000E+00  0.0000E+00
                                    0.154  1.0951E-14  0.0000E+00  0.0000E+00
                                    0.160  1.0734E-14  0.0000E+00  0.0000E+00
                                    0.167  1.0531E-14  0.0000E+00  0.0000E+00
                                    0.173  1.0341E-14  0.0000E+00  0.0000E+00
                                    0.180  1.0162E-14  0.0000E+00  0.0000E+00
                                    0.186  9.9930E-15  0.0000E+00  0.0000E+00
                                    0.193  9.8339E-15  0.0000E+00  0.0000E+00
                                    0.199  9.6835E-15  0.0000E+00  0.0000E+00
                                    0.206  9.5411E-15  0.0000E+00  0.0000E+00
                                    0.212  9.4061E-15  0.0000E+00  0.0000E+00
                                    0.219  9.2781E-15  0.0000E+00  0.0000E+00
                                    0.225  9.1564E-15  0.0000E+00  0.0000E+00
                                    0.232  9.0406E-15  0.0000E+00  0.0000E+00
                                    0.238  8.9303E-15  0.0000E+00  0.0000E+00
                                    0.245  8.8252E-15  0.0000E+00  0.0000E+00
                                    0.251  8.7249E-15  0.0000E+00  0.0000E+00
                                    0.258  8.6291E-15  0.0000E+00  0.0000E+00
                                    0.264  8.5375E-15  0.0000E+00  0.0000E+00
                                    0.271  8.4499E-15  0.0000E+00  0.0000E+00
                                    0.277  8.3661E-15  0.0000E+00  0.0000E+00
                                    0.284  8.2858E-15  0.0000E+00  0.0000E+00
                                    0.290  8.2088E-15  0.0000E+00  0.0000E+00
                                    0.297  8.1350E-15  0.0000E+00  0.0000E+00
                                    0.303  8.0641E-15  0.0000E+00  0.0000E+00
                                    0.310  7.9961E-15  0.0000E+00  0.0000E+00
                                    0.316  7.9307E-15  0.0000E+00  0.0000E+00
                                    0.323  7.8679E-15  0.0000E+00  0.0000E+00
                                    0.329  7.8075E-15  0.0000E+00  0.0000E+00
                                    0.336  7.7493E-15  0.0000E+00  0.0000E+00
                                    0.342  7.6934E-15  0.0000E+00  0.0000E+00
                                    0.349  7.6396E-15  0.0000E+00  0.0000E+00
                                    0.355  7.5877E-15  0.0000E+00  0.0000E+00
                                    0.362  7.5378E-15  0.0000E+00  0.0000E+00
                                    0.368  7.4896E-15  0.0000E+00  0.0000E+00
                                    0.375  7.4432E-15  0.0000E+00  0.0000E+00
                                    0.381  7.3985E-15  0.0000E+00  0.0000E+00
                                    0.388  7.3554E-15  0.0000E+00  0.0000E+00
                                    0.394  7.3138E-15  0.0000E+00  0.0000E+00
                                    0.401  7.2736E-15  0.0000E+00  0.0000E+00
                                    0.407  7.2348E-15  0.0000E+00  0.0000E+00
                                    0.414  7.1974E-15  0.0000E+00  0.0000E+00
                                    0.420  7.1613E-15  0.0000E+00  0.0000E+00
                                    0.427  7.1265E-15  0.0000E+00  0.0000E+00
                                    0.433  7.0928E-15  0.0000E+00  0.0000E+00
                                    0.440  7.0603E-15  0.0000E+00  0.0000E+00
                                    0.446  7.0289E-15  0.0000E+00  0.0000E+00
                                    0.453  6.9985E-15  0.0000E+00  0.0000E+00
                                    0.459  6.9692E-15  0.0000E+00  0.0000E+00
                                    0.466  6.9409E-15  0.0000E+00  0.0000E+00
                                    0.472  6.9135E-15  0.0000E+00  0.0000E+00
                                    0.479  6.8871E-15  0.0000E+00  0.0000E+00
                                    0.485  6.8615E-15  0.0000E+00  0.0000E+00
                                    0.492  6.8368E-15  0.0000E+00  0.0000E+00
                                    0.498  6.8130E-15  0.0000E+00  0.0000E+00
                                    0.505  6.7899E-15  0.0000E+00  0.0000E+00
                                    0.511  6.7677E-15  0.0000E+00  0.0000E+00
                                    0.518  6.7462E-15  0.0000E+00  0.0000E+00
                                    0.524  6.7254E-15  0.0000E+00  0.0000E+00
                                    0.531  6.7053E-15  0.0000E+00  0.0000E+00
                                    0.537  6.6859E-15  0.0000E+00  0.0000E+00
                                    0.544  6.6671E-15  0.0000E+00  0.0000E+00
                                    0.550  6.6490E-15  0.0000E+00  0.0000E+00
                                    0.557  6.6315E-15  0.0000E+00  0.0000E+00
                                    0.563  6.6147E-15  0.0000E+00  0.0000E+00
                                    0.570  6.5984E-15  0.0000E+00  0.0000E+00
                                    0.576  6.5826E-15  0.0000E+00  0.0000E+00
                                    0.583  6.5674E-15  0.0000E+00  0.0000E+00
                                    0.589  6.5528E-15  0.0000E+00  0.0000E+00
                                    0.596  6.5386E-15  0.0000E+00  0.0000E+00
                                    0.602  6.5250E-15  0.0000E+00  0.0000E+00
                                    0.609  6.5119E-15  0.0000E+00  0.0000E+00
                                    0.615  6.4992E-15  0.0000E+00  0.0000E+00
                                    0.622  6.4870E-15  0.0000E+00  0.0000E+00
                                    0.628  6.4752E-15  0.0000E+00  0.0000E+00
                                    0.635  6.4638E-15  0.0000E+00  0.0000E+00
                                    0.641  6.4529E-15  0.0000E+00  0.0000E+00
                                    0.648  6.4424E-15  0.0000E+00  0.0000E+00
                                    0.654  6.4323E-15  0.0000E+00  0.0000E+00
                                    0.661  6.4226E-15  0.0000E+00  0.0000E+00
                                    0.667  6.4132E-15  0.0000E+00  0.0000E+00
                                    0.674  6.4043E-15  0.0000E+00  0.0000E+00
                                    0.680  6.3956E-15  0.0000E+00  0.0000E+00
                                    0.687  6.3874E-15  0.0000E+00  0.0000E+00
                                    0.693  6.3794E-15  0.0000E+00  0.0000E+00
                                    0.700  6.3718E-15  0.0000E+00  0.0000E+00
                                    0.706  6.3645E-15  0.0000E+00  0.0000E+00
                                    0.713  6.3575E-15  0.0000E+00  0.0000E+00
                                    0.719  6.3509E-15  0.0000E+00  0.0000E+00
                                    0.726  6.3445E-15  0.0000E+00  0.0000E+00
                                    0.732  6.3384E-15  0.0000E+00  0.0000E+00
                                    0.739  6.3326E-15  0.0000E+00  0.0000E+00
                                    0.745  6.3271E-15  0.0000E+00  0.0000E+00
                                    0.752  6.3218E-15  0.0000E+00  0.0000E+00
                                    0.758  6.3168E-15  0.0000E+00  0.0000E+00
                                    0.765  6.3120E-15  0.0000E+00  0.0000E+00
                                    0.771  6.3075E-15  0.0000E+00  0.0000E+00
                                    0.778  6.3033E-15  0.0000E+00  0.0000E+00
                                    0.784  6.2992E-15  0.0000E+00  0.0000E+00
                                    0.791  6.2954E-15  0.0000E+00  0.0000E+00
                                    0.797  6.2919E-15  0.0000E+00  0.0000E+00
                                    0.804  6.2885E-15  0.0000E+00  0.0000E+00
                                    0.810  6.2854E-15  0.0000E+00  0.0000E+00
                                    0.817  6.2824E-15  0.0000E+00  0.0000E+00
                                    0.823  6.2797E-15  0.0000E+00  0.0000E+00
                                    0.830  6.2772E-15  0.0000E+00  0.0000E+00
                                    0.836  6.2748E-15  0.0000E+00  0.0000E+00
                                    0.843  6.2727E-15  0.0000E+00  0.0000E+00
                                    0.849  6.2707E-15  0.0000E+00  0.0000E+00
                                    0.856  6.2689E-15  0.0000E+00  0.0000E+00
                                    0.862  6.2673E-15  0.0000E+00  0.0000E+00
                                    0.869  6.2658E-15  0.0000E+00  0.0000E+00
                                    0.875  6.2646E-15  0.0000E+00  0.0000E+00
                                    0.882  6.2635E-15  0.0000E+00  0.0000E+00
                                    0.888  6.2625E-15  0.0000E+00  0.0000E+00
                                    0.895  6.2617E-15  0.0000E+00  0.0000E+00
                                    0.901  6.2611E-15  0.0000E+00  0.0000E+00
                                    0.908  6.2606E-15  0.0000E+00  0.0000E+00
                                    0.914  6.2602E-15  0.0000E+00  0.0000E+00
                                    0.921  6.2600E-15  0.0000E+00  0.0000E+00
                                    0.927  6.2600E-15  0.0000E+00  0.0000E+00
                                    0.934  6.2600E-15  0.0000E+00  0.0000E+00
                                    0.940  6.2602E-15  0.0000E+00  0.0000E+00
                                    0.947  6.2606E-15  0.0000E+00  0.0000E+00
                                    0.953  6.2610E-15  0.0000E+00  0.0000E+00
                                    0.960  6.2616E-15  0.0000E+00  0.0000E+00
                                    0.966  6.2623E-15  0.0000E+00  0.0000E+00
                                    0.973  6.2631E-15  0.0000E+00  0.0000E+00
                                    0.979  6.2641E-15  0.0000E+00  0.0000E+00
                                    0.986  6.2651E-15  0.0000E+00  0.0000E+00
                                    0.992  6.2663E-15  0.0000E+00  0.0000E+00
                                    0.999  6.2676E-15  0.0000E+00  0.0000E+00
                                    1.005  6.2690E-15  1.0116E-11  6.3417E-26
                                    1.012  6.2705E-15  5.1796E-11  3.2479E-25
                                    1.018  6.2720E-15  1.2584E-10  7.8930E-25
                                    1.025  6.2737E-15  2.3245E-10  1.4583E-24
                                    1.031  6.2755E-15  3.7172E-10  2.3328E-24
                                    1.038  6.2774E-15  5.4348E-10  3.4117E-24
                                    1.044  6.2794E-15  7.4776E-10  4.6954E-24
                                    1.051  6.2814E-15  9.8486E-10  6.1864E-24
                                    1.057  6.2836E-15  1.2547E-09  7.8839E-24
                                    1.064  6.2858E-15  1.5571E-09  9.7880E-24
                                    1.070  6.2882E-15  1.8923E-09  1.1899E-23
                                    1.077  6.2906E-15  2.2606E-09  1.4220E-23
                                    1.083  6.2931E-15  2.6617E-09  1.6750E-23
                                    1.090  6.2957E-15  3.0956E-09  1.9489E-23
                                    1.096  6.2983E-15  3.5625E-09  2.2438E-23
                                    1.103  6.3011E-15  4.0626E-09  2.5599E-23
                                    1.109  6.3039E-15  4.5957E-09  2.8971E-23
                                    1.116  6.3068E-15  5.1619E-09  3.2555E-23
                                    1.122  6.3097E-15  5.7614E-09  3.6353E-23
                                    1.129  6.3127E-15  6.3942E-09  4.0365E-23
                                    1.135  6.3158E-15  7.0603E-09  4.4592E-23
                                    1.142  6.3190E-15  7.7596E-09  4.9033E-23
                                    1.148  6.3223E-15  8.4926E-09  5.3692E-23
                                    1.155  6.3256E-15  9.2591E-09  5.8569E-23
                                    1.161  6.3289E-15  1.0059E-08  6.3663E-23
                                    1.168  6.3323E-15  1.0893E-08  6.8976E-23
                                    1.174  6.3358E-15  1.1760E-08  7.4510E-23
                                    1.181  6.3394E-15  1.2661E-08  8.0264E-23
                                    1.187  6.3430E-15  1.3596E-08  8.6240E-23
                                    1.194  6.3467E-15  1.4565E-08  9.2440E-23
                                    1.200  6.3504E-15  1.5568E-08  9.8863E-23
                                    1.207  6.3542E-15  1.6605E-08  1.0551E-22
                                    1.213  6.3580E-15  1.7676E-08  1.1238E-22
                                    1.220  6.3619E-15  1.8781E-08  1.1948E-22
                                    1.226  6.3659E-15  1.9921E-08  1.2681E-22
                                    1.233  6.3699E-15  2.1095E-08  1.3437E-22
                                    1.239  6.3739E-15  2.2303E-08  1.4216E-22
                                    1.246  6.3780E-15  2.3546E-08  1.5018E-22
                                    1.252  6.3821E-15  2.4824E-08  1.5843E-22
                                    1.259  6.3863E-15  2.6136E-08  1.6691E-22
                                    1.265  6.3906E-15  2.7483E-08  1.7563E-22
                                    1.272  6.3949E-15  2.8864E-08  1.8458E-22
                                    1.278  6.3992E-15  3.0281E-08  1.9377E-22
                                    1.285  6.4036E-15  3.1733E-08  2.0320E-22
                                    1.291  6.4080E-15  3.3219E-08  2.1287E-22
                                    1.298  6.4125E-15  3.4741E-08  2.2278E-22
                                    1.304  6.4170E-15  3.6299E-08  2.3293E-22
                                    1.311  6.4215E-15  3.7891E-08  2.4332E-22
                                    1.317  6.4261E-15  3.9519E-08  2.5396E-22
                                    1.324  6.4307E-15  4.1183E-08  2.6484E-22
                                    1.330  6.4354E-15  4.2882E-08  2.7596E-22
                                    1.337  6.4401E-15  4.4617E-08  2.8734E-22
                                    1.343  6.4449E-15  4.6388E-08  2.9896E-22
                                    1.350  6.4496E-15  4.8194E-08  3.1083E-22
                                    1.356  6.4545E-15  5.0037E-08  3.2296E-22
                                    1.363  6.4593E-15  5.1915E-08  3.3534E-22
                                    1.369  6.4642E-15  5.3830E-08  3.4797E-22
                                    1.376  6.4691E-15  5.5781E-08  3.6086E-22
                                    1.382  6.4741E-15  5.7769E-08  3.7400E-22
                                    1.389  6.4791E-15  5.9793E-08  3.8740E-22
                                    1.395  6.4841E-15  6.1853E-08  4.0106E-22
                                    1.402  6.4891E-15  6.3950E-08  4.1498E-22
                                    1.408  6.4942E-15  6.6084E-08  4.2917E-22
                                    1.415  6.4993E-15  6.8255E-08  4.4362E-22
                                    1.421  6.5045E-15  7.0463E-08  4.5833E-22
                                    1.428  6.5097E-15  7.2708E-08  4.7330E-22
                                    1.434  6.5149E-15  7.4990E-08  4.8855E-22
                                    1.441  6.5201E-15  7.7310E-08  5.0407E-22
                                    1.447  6.5254E-15  7.9666E-08  5.1985E-22
                                    1.454  6.5307E-15  8.2060E-08  5.3591E-22
                                    1.460  6.5360E-15  8.4492E-08  5.5224E-22
                                    1.467  6.5413E-15  8.6962E-08  5.6885E-22
                                    1.473  6.5467E-15  8.9469E-08  5.8573E-22
                                    1.480  6.5521E-15  9.2014E-08  6.0289E-22
                                    1.486  6.5575E-15  9.4598E-08  6.2033E-22
                                    1.493  6.5630E-15  9.7219E-08  6.3805E-22
                                    1.499  6.5684E-15  9.9879E-08  6.5605E-22
                                    1.506  6.5739E-15  1.0263E-07  6.7467E-22
                                    1.512  6.5795E-15  1.0555E-07  6.9448E-22
                                    1.519  6.5850E-15  1.0866E-07  7.1551E-22
                                    1.525  6.5906E-15  1.1194E-07  7.3775E-22
                                    1.532  6.5962E-15  1.1540E-07  7.6122E-22
                                    1.538  6.6018E-15  1.1905E-07  7.8592E-22
                                    1.545  6.6074E-15  1.2287E-07  8.1186E-22
                                    1.551  6.6131E-15  1.2688E-07  8.3910E-22
                                    1.558  6.6187E-15  1.3143E-07  8.6993E-22
                                    1.564  6.6244E-15  1.3672E-07  9.0567E-22
                                    1.571  6.6302E-15  1.4273E-07  9.4632E-22
                                    1.577  6.6359E-15  1.4948E-07  9.9195E-22
