SOURCES 4C Calculation
<<<<<<<<<<<>>>>>>>>>>>



                          Neutron Source Magnitudes
                          ~~~~~~~~~~~~~~~~~~~~~~~~~

Title: Copper on He interface problem InterfaceProblem: N. Abgrall et al., Nucl. Ins

 WARNING-AN ALPHA ENERGY THAT EXCEEDED   6.500 MEV WAS SET TO:  6.500 MeV
 WARNING-AN ALPHA ENERGY THAT EXCEEDED   6.500 MEV WAS SET TO:  6.500 MeV
 WARNING-AN ALPHA ENERGY THAT EXCEEDED   6.500 MEV WAS SET TO:  6.500 MeV
 WARNING-AN ALPHA ENERGY THAT EXCEEDED   6.500 MEV WAS SET TO:  6.500 MeV
 WARNING-AN ALPHA ENERGY THAT EXCEEDED   6.500 MEV WAS SET TO:  6.500 MeV


1                              Table I
                               =======

            (alpha,n) Neutron Production by Target and Alpha Energy


                 target            alpha   alphas/sec     p(e)     neuts/sec
       target  atom frac.          energy     /cm^2    neut/alpha    /cm^2
+      ______  __________  ______  ______  __________  __________  __________
       be  9   1.0000E+00           0.033  7.6428E-13  0.0000E+00  0.0000E+00
                                    0.098  1.4289E-13  0.0000E+00  0.0000E+00
                                    0.163  1.0799E-13  0.0000E+00  0.0000E+00
                                    0.228  9.1694E-14  0.0000E+00  0.0000E+00
                                    0.293  8.2097E-14  0.0000E+00  0.0000E+00
                                    0.358  7.5856E-14  0.0000E+00  0.0000E+00
                                    0.423  7.1589E-14  0.0000E+00  0.0000E+00
                                    0.488  6.8596E-14  0.0000E+00  0.0000E+00
                                    0.553  6.6478E-14  0.0000E+00  0.0000E+00
                                    0.618  6.4986E-14  0.0000E+00  0.0000E+00
                                    0.683  6.3957E-14  0.0000E+00  0.0000E+00
                                    0.748  6.3277E-14  0.0000E+00  0.0000E+00
                                    0.813  6.2864E-14  0.0000E+00  0.0000E+00
                                    0.878  6.2660E-14  0.0000E+00  0.0000E+00
                                    0.943  6.2620E-14  0.0000E+00  0.0000E+00
                                    1.008  6.2710E-14  2.6802E-11  1.6808E-24
                                    1.073  6.2904E-14  2.0724E-09  1.3036E-22
                                    1.138  6.3183E-14  7.4058E-09  4.6792E-22
                                    1.203  6.3530E-14  1.6082E-08  1.0217E-21
                                    1.268  6.3933E-14  2.8169E-08  1.8009E-21
                                    1.333  6.4382E-14  4.3745E-08  2.8164E-21
                                    1.398  6.4870E-14  6.2897E-08  4.0802E-21
                                    1.463  6.5390E-14  8.5722E-08  5.6054E-21
                                    1.528  6.5936E-14  1.1365E-07  7.4937E-21
                                    1.593  6.6506E-14  1.6960E-07  1.1279E-20
                                    1.658  6.7094E-14  3.0151E-07  2.0230E-20
                                    1.723  6.7700E-14  5.7951E-07  3.9233E-20
                                    1.788  6.8319E-14  1.1552E-06  7.8924E-20
                                    1.853  6.8950E-14  2.2932E-06  1.5812E-19
                                    1.918  6.9592E-14  3.8958E-06  2.7112E-19
                                    1.983  7.0243E-14  5.5298E-06  3.8843E-19
                                    2.048  7.0903E-14  6.8541E-06  4.8597E-19
                                    2.113  7.1569E-14  7.9740E-06  5.7069E-19
                                    2.178  7.2242E-14  8.9994E-06  6.5013E-19
                                    2.243  7.2920E-14  1.0103E-05  7.3669E-19
                                    2.308  7.3603E-14  1.1246E-05  8.2775E-19
                                    2.373  7.4290E-14  1.2304E-05  9.1404E-19
                                    2.438  7.4981E-14  1.3366E-05  1.0022E-18
                                    2.503  7.5676E-14  1.4485E-05  1.0962E-18
                                    2.568  7.6374E-14  1.5738E-05  1.2020E-18
                                    2.633  7.7075E-14  1.7076E-05  1.3161E-18
                                    2.698  7.7778E-14  1.8364E-05  1.4283E-18
                                    2.763  7.8483E-14  1.9522E-05  1.5321E-18
                                    2.828  7.9190E-14  2.0574E-05  1.6293E-18
                                    2.893  7.9899E-14  2.1573E-05  1.7237E-18
                                    2.958  8.0610E-14  2.2490E-05  1.8129E-18
                                    3.023  8.1322E-14  2.3305E-05  1.8952E-18
                                    3.088  8.2036E-14  2.4046E-05  1.9726E-18
                                    3.153  8.2751E-14  2.4797E-05  2.0520E-18
                                    3.218  8.3467E-14  2.5534E-05  2.1312E-18
                                    3.283  8.4183E-14  2.6241E-05  2.2090E-18
                                    3.348  8.4901E-14  2.6964E-05  2.2893E-18
                                    3.413  8.5619E-14  2.7755E-05  2.3764E-18
                                    3.478  8.6338E-14  2.8610E-05  2.4701E-18
                                    3.543  8.7058E-14  2.9578E-05  2.5750E-18
                                    3.608  8.7778E-14  3.0747E-05  2.6989E-18
                                    3.673  8.8499E-14  3.2127E-05  2.8432E-18
                                    3.738  8.9220E-14  3.3620E-05  2.9996E-18
                                    3.803  8.9940E-14  3.5313E-05  3.1760E-18
                                    3.868  9.0654E-14  3.7242E-05  3.3761E-18
                                    3.933  9.0797E-14  3.9549E-05  3.5910E-18
                                    3.998  8.5636E-14  4.3098E-05  3.6907E-18
                                    4.063  7.7650E-14  4.7660E-05  3.7008E-18
                                    4.128  7.8255E-14  5.1873E-05  4.0593E-18
                                    4.193  7.8859E-14  5.5885E-05  4.4070E-18
                                    4.258  7.9463E-14  5.9810E-05  4.7527E-18
                                    4.323  8.0067E-14  6.3828E-05  5.1105E-18
                                    4.388  8.0671E-14  6.7889E-05  5.4767E-18
                                    4.453  8.1275E-14  7.2017E-05  5.8532E-18
                                    4.518  8.1879E-14  7.6238E-05  6.2423E-18
                                    4.583  8.2483E-14  8.0411E-05  6.6326E-18
                                    4.648  8.3087E-14  8.4448E-05  7.0165E-18
                                    4.713  8.3690E-14  8.8391E-05  7.3974E-18
                                    4.778  8.4294E-14  9.2498E-05  7.7970E-18
                                    4.843  8.4897E-14  9.6867E-05  8.2237E-18
                                    4.908  8.5500E-14  1.0164E-04  8.6900E-18
                                    4.973  8.6103E-14  1.0678E-04  9.1944E-18
                                    5.038  8.6705E-14  1.1211E-04  9.7205E-18
                                    5.103  8.7306E-14  1.1757E-04  1.0265E-17
                                    5.168  8.7884E-14  1.2301E-04  1.0811E-17
                                    5.233  8.8398E-14  1.2875E-04  1.1381E-17
                                    5.298  8.8987E-14  1.3478E-04  1.1994E-17
                                    5.363  8.5401E-14  1.4089E-04  1.2032E-17
                                    5.428  7.7891E-14  1.4711E-04  1.1459E-17
                                    5.493  7.2227E-14  1.5349E-04  1.1086E-17
                                    5.558  7.2704E-14  1.6045E-04  1.1665E-17
                                    5.623  7.3160E-14  1.6741E-04  1.2247E-17
                                    5.688  6.4512E-14  1.7425E-04  1.1242E-17
                                    5.753  5.6814E-14  1.8135E-04  1.0303E-17
                                    5.818  5.7144E-14  1.8863E-04  1.0779E-17
                                    5.883  5.7508E-14  1.9604E-04  1.1274E-17
                                    5.948  5.7872E-14  2.0288E-04  1.1741E-17
                                    6.013  5.8236E-14  2.0973E-04  1.2214E-17
                                    6.078  5.6848E-14  2.1653E-04  1.2310E-17
                                    6.143  5.6578E-14  2.2330E-04  1.2634E-17
                                    6.208  5.6926E-14  2.3010E-04  1.3099E-17
                                    6.273  5.2324E-14  2.3697E-04  1.2399E-17
                                    6.338  3.8275E-14  2.4384E-04  9.3330E-18
                                    6.403  3.8506E-14  2.5068E-04  9.6527E-18
                                    6.468  3.8737E-14  2.5761E-04  9.9789E-18
+                                                                  __________
                                                       Total:      4.1444E-16

